FILE_VERSION	2.0.0
NO_OF_FRAMES	109
NO_OF_CAMERAS	2
NO_OF_MARKERS	4
FREQUENCY	100
DESCRIPTION	--
TIME_STAMP	2025-11-17, 13:18:07.929	310475.13214840
DATA_INCLUDED	3D
MARKER_NAMES	cm2	ed2	cm1	ed1
TRAJECTORY_TYPES	Mixed	Measured	Measured	Measured
357.986	357.267	-15.328	349.797	373.334	-15.377	437.212	119.879	-13.859	454.194	112.311	-13.737
357.899	357.388	-15.331	349.068	373.139	-15.388	435.799	126.274	-13.914	452.930	119.048	-13.804
357.788	357.554	-15.344	348.336	372.925	-15.474	434.358	132.633	-13.931	451.679	125.837	-13.828
357.664	357.710	-15.321	347.618	372.654	-15.438	432.937	138.996	-13.954	450.427	132.634	-13.877
357.570	357.839	-15.302	346.916	372.434	-15.398	431.524	145.325	-14.006	449.125	139.373	-13.960
357.459	357.983	-15.318	346.257	372.118	-15.442	430.124	151.704	-14.041	447.856	146.155	-13.968
357.357	358.097	-15.318	345.584	371.741	-15.453	428.716	158.053	-14.056	446.556	152.913	-13.977
357.262	358.198	-15.337	344.929	371.417	-15.420	427.300	164.383	-14.088	445.271	159.680	-14.020
357.158	358.329	-15.372	344.318	371.071	-15.432	425.869	170.742	-14.119	443.970	166.420	-14.063
357.049	358.464	-15.350	343.703	370.642	-15.395	424.456	177.077	-14.114	442.640	173.190	-14.105
356.954	358.608	-15.368	343.130	370.272	-15.430	423.043	183.428	-14.144	441.312	179.969	-14.149
356.843	358.759	-15.385	342.578	369.861	-15.366	421.645	189.753	-14.137	439.960	186.738	-14.171
356.742	358.908	-15.345	342.045	369.438	-15.390	420.210	196.094	-14.185	438.629	193.494	-14.200
356.623	359.045	-15.380	341.530	369.041	-15.352	418.794	202.425	-14.200	437.243	200.284	-14.207
356.522	359.180	-15.341	341.029	368.536	-15.383	417.399	208.756	-14.269	435.872	207.077	-14.218
356.412	359.309	-15.357	340.599	368.074	-15.374	416.013	215.139	-14.362	434.518	213.789	-14.379
356.316	359.419	-15.373	340.145	367.541	-15.378	414.617	221.471	-14.425	433.161	220.506	-14.419
356.230	359.541	-15.374	339.762	367.015	-15.379	413.175	227.747	-14.364	431.768	227.351	-14.444
356.127	359.692	-15.370	339.378	366.524	-15.377	411.733	234.019	-14.265	430.372	234.047	-14.494
356.010	359.834	-15.368	338.999	365.930	-15.309	410.318	240.351	-14.311	428.886	240.729	-14.430
355.908	359.955	-15.369	338.704	365.472	-15.391	408.943	246.731	-14.421	427.459	247.539	-14.400
355.790	360.076	-15.367	338.385	364.848	-15.369	407.568	252.969	-14.531	426.033	254.342	-14.523
355.697	360.211	-15.348	338.105	364.311	-15.330	406.197	259.268	-14.690	424.622	260.997	-14.648
355.608	360.356	-15.385	337.845	363.758	-15.351	404.724	265.543	-14.617	423.180	267.659	-14.693
355.528	360.479	-15.405	337.640	363.185	-15.361	403.250	271.860	-14.539	421.678	274.493	-14.655
355.411	360.602	-15.400	337.443	362.644	-15.348	401.853	278.124	-14.545	420.210	281.255	-14.662
355.286	360.739	-15.372	337.285	362.026	-15.371	400.469	284.419	-14.663	418.722	287.902	-14.701
355.183	360.934	-15.365	337.179	361.470	-15.418	399.094	290.708	-14.722	417.225	294.550	-14.792
355.069	361.128	-15.280	337.053	360.866	-15.405	397.677	296.955	-14.712	415.737	301.282	-14.784
354.972	361.202	-15.341	336.962	360.305	-15.324	396.266	303.223	-14.753	414.218	307.968	-14.851
354.891	361.297	-15.405	336.897	359.753	-15.320	394.855	309.486	-14.795	412.700	314.644	-14.920
354.796	361.431	-15.427	336.855	359.143	-15.338	393.431	315.763	-14.760	411.167	321.356	-14.908
354.688	361.582	-15.368	336.865	358.653	-15.255	392.036	322.053	-14.798	409.635	327.990	-14.938
353.286	363.348	-15.423	335.652	359.378	-15.300	391.837	326.739	-14.874	409.201	333.409	-15.026
351.526	365.519	-15.407	334.169	360.617	-15.354	392.016	331.063	-14.894	409.086	338.379	-14.974
349.784	367.788	-15.479	332.776	361.866	-15.450	392.157	335.204	-14.936	408.851	343.400	-15.040
348.234	369.861	-15.469	331.564	362.984	-15.396	392.126	339.537	-14.952	408.344	348.541	-15.062
346.667	371.951	-15.490	330.397	364.133	-15.386	392.088	343.871	-14.950	407.862	353.688	-15.031
345.195	373.995	-15.491	329.374	365.273	-15.419	391.955	348.253	-14.979	407.238	358.858	-15.104
343.785	375.995	-15.503	328.422	366.519	-15.439	391.791	352.742	-15.000	406.490	364.091	-15.130
342.428	377.997	-15.540	327.586	367.760	-15.460	391.589	357.208	-15.005	405.650	369.337	-15.148
341.138	379.925	-15.512	326.822	368.949	-15.441	391.308	361.668	-15.037	404.701	374.504	-15.203
339.922	381.827	-15.532	326.166	370.143	-15.442	390.956	366.173	-15.118	403.629	379.713	-15.205
338.771	383.700	-15.524	325.603	371.330	-15.452	390.528	370.639	-15.118	402.488	384.901	-15.218
337.704	385.546	-15.548	325.156	372.593	-15.462	390.040	375.167	-15.073	401.206	390.032	-15.265
336.689	387.393	-15.598	324.787	373.804	-15.456	389.500	379.708	-15.174	399.825	395.126	-15.283
335.741	389.215	-15.585	324.540	375.054	-15.505	388.870	384.283	-15.188	398.366	400.229	-15.330
334.865	391.051	-15.524	324.397	376.385	-15.473	388.178	388.814	-15.201	396.831	405.245	-15.373
334.068	392.861	-15.574	324.343	377.660	-15.537	387.432	393.394	-15.224	395.188	410.247	-15.405
333.350	394.707	-15.599	324.395	379.052	-15.484	386.592	397.949	-15.242	393.483	415.183	-15.436
332.705	396.522	-15.578	324.579	380.444	-15.569	385.721	402.534	-15.292	391.709	420.091	-15.476
332.128	398.354	-15.586	324.862	381.877	-15.558	384.762	407.082	-15.392	389.835	424.908	-15.524
331.628	400.201	-15.606	325.207	383.372	-15.517	383.730	411.596	-15.409	387.886	429.697	-15.488
331.191	402.054	-15.600	325.687	384.879	-15.574	382.614	416.088	-15.363	385.875	434.418	-15.517
330.801	403.903	-15.601	326.188	386.500	-15.513	381.443	420.573	-15.364	383.817	439.100	-15.578
330.515	405.796	-15.658	326.814	388.181	-15.571	380.238	425.072	-15.435	381.629	443.621	-15.576
330.285	407.689	-15.706	327.502	389.860	-15.602	378.927	429.472	-15.464	379.385	448.027	-15.660
330.111	409.587	-15.709	328.261	391.661	-15.620	377.591	433.858	-15.547	377.106	452.542	-15.703
330.019	411.542	-15.644	329.071	393.590	-15.661	376.160	438.258	-15.515	374.728	456.789	-15.862
329.976	413.605	-15.640	329.938	395.580	-15.651	374.703	442.628	-15.539	372.271	461.049	-15.735
329.990	415.737	-15.584	330.862	397.647	-15.585	373.167	446.953	-15.594	369.794	465.217	-15.718
330.065	417.745	-15.685	331.841	399.877	-15.603	371.576	451.220	-15.663	367.276	469.310	-15.785
330.232	419.856	-15.796	332.913	402.077	-15.633	369.944	455.463	-15.646	364.714	473.273	-15.808
330.414	422.039	-15.771	334.003	404.426	-15.721	368.256	459.601	-15.683	362.146	477.138	-15.843
330.656	424.238	-15.794	335.136	406.828	-15.747	366.516	463.724	-15.689	359.509	480.931	-15.845
330.945	426.560	-15.782	336.302	409.334	-15.700	364.728	467.806	-15.728	356.850	484.633	-15.893
331.257	428.873	-15.756	337.482	411.950	-15.652	362.897	471.767	-15.723	354.185	488.200	-15.885
331.649	431.245	-15.837	338.704	414.658	-15.677	361.061	475.729	-15.793	351.482	491.647	-15.884
332.046	433.679	-15.803	339.971	417.477	-15.708	359.137	479.595	-15.810	348.798	495.053	-15.974
332.491	436.194	-15.868	341.230	420.391	-15.713	357.203	483.454	-15.844	346.067	498.348	-15.958
332.978	438.729	-15.849	342.500	423.387	-15.789	355.257	487.224	-15.835	343.387	501.513	-16.003
333.495	441.399	-15.861	343.788	426.588	-15.779	353.263	490.945	-15.891	340.664	504.637	-15.995
334.035	444.088	-15.860	345.061	429.774	-15.767	351.248	494.613	-15.922	338.004	507.623	-16.029
334.594	446.882	-15.914	346.351	433.138	-15.843	349.193	498.227	-15.930	335.292	510.505	-16.031
335.166	449.698	-15.874	347.597	436.554	-15.834	347.150	501.710	-15.919	332.633	513.310	-16.057
335.777	452.581	-15.954	348.847	440.087	-15.876	345.089	505.160	-15.975	330.014	516.004	-16.101
336.370	455.543	-15.929	350.082	443.740	-15.907	343.003	508.517	-16.047	327.403	518.606	-16.124
336.982	458.595	-15.962	351.256	447.454	-15.887	340.928	511.830	-16.097	324.825	521.126	-16.147
337.618	461.696	-15.978	352.419	451.297	-15.880	338.843	515.076	-16.066	322.288	523.551	-16.154
338.213	464.856	-16.004	353.549	455.253	-15.900	336.755	518.247	-16.072	319.807	525.815	-16.151
338.833	468.088	-15.976	354.648	459.266	-15.947	334.653	521.328	-16.073	317.354	528.091	-16.183
339.465	471.437	-16.018	355.688	463.442	-16.001	332.573	524.397	-16.093	314.957	530.237	-16.205
340.073	474.811	-16.039	356.667	467.632	-16.008	330.508	527.382	-16.150	312.602	532.331	-16.173
340.657	478.288	-16.070	357.609	471.964	-16.018	328.471	530.296	-16.152	310.334	534.279	-16.175
341.219	481.779	-16.042	358.469	476.324	-16.057	326.421	533.117	-16.174	308.112	536.173	-16.241
341.768	485.371	-16.137	359.281	480.785	-16.122	324.375	535.850	-16.156	305.948	538.124	-16.290
342.307	489.025	-16.114	360.026	485.353	-16.114	322.406	538.627	-16.289	303.853	539.924	-16.215
342.804	492.732	-16.140	360.677	489.962	-16.132	320.452	541.296	-16.292	301.843	541.620	-16.236
343.274	496.527	-16.180	361.285	494.652	-16.162	318.464	543.756	-16.225	299.928	543.216	-16.299
343.752	500.331	-16.273	361.767	499.397	-16.078	316.598	546.396	-16.313	298.100	544.906	-16.387
344.106	504.374	-16.168	362.229	504.233	-16.235	314.702	548.831	-16.292	296.277	546.297	-16.277
344.521	508.297	-16.347	362.516	509.074	-16.142	312.847	551.291	-16.288	294.616	547.846	-16.341
344.805	512.263	-16.282	362.830	514.096	-16.255	311.059	553.636	-16.319	293.004	549.286	-16.307
345.089	516.271	-16.322	362.967	519.068	-16.267	309.301	555.992	-16.293	291.487	550.695	-16.350
345.317	520.474	-16.329	363.017	524.070	-16.180	307.583	558.233	-16.352	290.066	552.098	-16.350
345.513	524.589	-16.372	363.008	529.105	-16.217	305.911	560.415	-16.324	288.733	553.406	-16.337
345.650	528.789	-16.462	362.875	534.165	-16.345	304.303	562.566	-16.365	287.473	554.676	-16.320
345.701	533.015	-16.460	362.637	539.263	-16.312	302.721	564.692	-16.329	286.342	555.983	-16.349
345.713	537.315	-16.468	362.325	544.429	-16.360	301.208	566.788	-16.385	285.295	557.259	-16.416
345.673	541.640	-16.509	361.935	549.593	-16.474	299.773	568.867	-16.418	284.344	558.500	-16.430
345.588	546.036	-16.540	361.384	554.738	-16.477	298.353	570.881	-16.358	283.463	559.769	-16.403
345.424	550.404	-16.526	360.762	559.980	-16.522	297.006	572.883	-16.351	282.687	561.041	-16.340
345.196	554.859	-16.610	360.030	565.156	-16.558	295.719	574.835	-16.358	282.038	562.327	-16.425
344.906	559.316	-16.648	359.211	570.355	-16.636	294.487	576.829	-16.391	281.444	563.591	-16.407
344.537	563.764	-16.616	358.275	575.559	-16.621	293.327	578.714	-16.423	280.979	564.842	-16.439
344.127	568.249	-16.633	357.226	580.659	-16.708	292.217	580.596	-16.389	280.560	566.154	-16.420
343.643	572.762	-16.733	356.106	585.821	-16.741	291.180	582.471	-16.446	280.271	567.431	-16.378
343.045	577.213	-16.726	354.880	590.941	-16.783	290.208	584.322	-16.442	280.068	568.736	-16.434
342.431	581.744	-16.786	353.539	596.018	-16.790	289.301	586.205	-16.508	279.950	570.114	-16.488
